0.000000 7
0.100000 7
0.200000 7
0.300000 8
0.400000 7
0.500000 7
0.600000 7
0.700000 9
0.800000 9
0.900000 7
1.000000 7
1.100000 7
1.200000 7
1.300000 7
1.400000 7
1.500000 7
1.600000 9
1.700000 7
1.800000 6
1.900000 8
2.000000 8
2.100000 7
2.200000 7
2.300000 7
2.400000 8
2.500000 7
2.600000 7
2.700000 7
2.800000 7
2.900000 8
3.000000 7
3.100000 8
3.200000 7
3.300000 8
3.400000 7
3.500000 8
3.600000 8
3.700000 9
3.800000 6
3.900000 7
4.000000 7
4.100000 6
4.200000 8
4.300000 7
4.400000 7
4.500000 6
4.600000 7
4.700000 7
4.800000 7
4.900000 7
5.000000 7
5.100000 8
5.200000 8
5.300000 7
5.400000 8
5.500000 7
5.600000 7
5.700000 7
5.800000 7
5.900000 8
6.000000 7
6.100000 7
6.200000 9
6.300000 7
6.400000 7
6.500000 7
6.600000 7
6.700000 7
6.800000 7
6.900000 8
7.000000 8
7.100000 7
7.200000 7
7.300000 6
7.400000 7
7.500000 7
7.600000 7
7.700000 8
7.800000 7
7.900000 6
8.000000 7
8.100000 7
8.200000 7
8.300000 7
8.400000 8
8.500000 7
8.600000 8
8.700000 7
8.800000 7
8.900000 7
9.000000 7
9.100000 8
9.200000 7
9.300000 7
9.400000 6
9.500000 8
9.600000 7
9.700000 7
9.800000 7
9.900000 8
10.000000 8
10.100000 8
10.200000 8
10.300000 7
10.400000 7
10.500000 7
10.600000 7
10.700000 7
10.800000 8
10.900000 7
11.000000 7
11.100000 7
11.200000 7
11.300000 8
11.400000 7
11.500000 8
11.600000 8
11.700000 8
11.800000 8
11.900000 8
12.000000 7
12.100000 8
12.200000 7
12.300000 7
12.400000 7
12.500000 7
12.600000 7
12.700000 7
12.800000 9
12.900000 7
13.000000 7
13.100000 7
13.200000 7
13.300000 8
13.400000 8
13.500000 7
13.600000 7
13.700000 7
13.800000 7
13.900000 7
14.000000 7
14.100000 7
14.200000 8
14.300000 7
14.400000 8
14.500000 7
14.600000 7
14.700000 7
14.800000 8
14.900000 8
15.000000 8
15.100000 6
15.200000 7
15.300000 7
15.400000 7
15.500000 7
15.600000 7
15.700000 7
15.800000 7
15.900000 8
16.000000 7
16.100000 6
16.200000 8
16.300000 7
16.400000 7
16.500000 7
16.600000 7
16.700000 6
16.800000 8
16.900000 7
17.000000 6
17.100000 8
17.200000 8
17.300000 8
17.400000 7
17.500000 7
17.600000 7
17.700000 8
17.800000 7
17.900000 7
18.000000 7
18.100000 7
18.200000 7
18.300000 7
18.400000 8
18.500000 7
18.600000 7
18.700000 7
18.800000 7
18.900000 7
19.000000 7
19.100000 8
19.200000 7
19.300000 7
19.400000 7
19.500000 7
19.600000 7
19.700000 8
19.800000 9
19.900000 6
20.000000 9
20.100000 7
20.200000 7
20.300000 7
20.400000 8
20.500000 9
20.600000 9
20.700000 7
20.800000 7
20.900000 9
21.000000 8
21.100000 8
21.200000 8
21.300000 7
21.400000 8
21.500000 7
21.600000 7
21.700000 7
21.800000 7
21.900000 7
22.000000 8
22.100000 7
22.200000 7
22.300000 8
22.400000 6
22.500000 8
22.600000 8
22.700000 7
22.800000 8
22.900000 7
23.000000 9
23.100000 8
23.200000 8
23.300000 7
23.400000 8
23.500000 8
23.600000 8
23.700000 8
23.800000 8
23.900000 8
24.000000 7
24.100000 8
24.200000 8
24.300000 9
24.400000 9
24.500000 8
24.600000 7
24.700000 7
24.800000 8
24.900000 8
25.000000 8
25.100000 8
25.200000 7
25.300000 7
25.400000 8
25.500000 7
25.600000 7
25.700000 7
25.800000 7
25.900000 9
26.000000 7
26.100000 6
26.200000 7
26.300000 7
26.400000 7
26.500000 9
26.600000 6
26.700000 10
26.800000 8
26.900000 8
27.000000 8
27.100000 8
27.200000 7
27.300000 7
27.400000 7
27.500000 8
27.600000 8
27.700000 8
27.800000 10
27.900000 9
28.000000 8
28.100000 9
28.200000 7
28.300000 9
28.400000 7
28.500000 7
28.600000 8
28.700000 8
28.800000 9
28.900000 7
29.000000 9
29.100000 7
29.200000 8
29.300000 8
29.400000 8
29.500000 7
29.600000 7
29.700000 7
29.800000 7
29.900000 7
30.000000 8
30.100000 8
30.200000 7
30.300000 7
30.400000 7
30.500000 8
30.600000 7
30.700000 8
30.800000 8
30.900000 8
31.000000 8
31.100000 8
31.200000 8
31.300000 7
31.400000 7
31.500000 8
31.600000 7
31.700000 8
31.800000 9
31.900000 8
32.000000 9
32.100000 7
32.200000 7
32.300000 8
32.400000 8
32.500000 8
32.600000 9
32.700000 7
32.800000 8
32.900000 7
33.000000 8
33.100000 8
33.200000 8
33.300000 7
33.400000 9
33.500000 9
33.600000 8
33.700000 7
33.800000 8
33.900000 9
34.000000 8
34.100000 8
34.200000 8
34.300000 8
34.400000 8
34.500000 7
34.600000 9
34.700000 8
34.800000 8
34.900000 8
35.000000 8
35.100000 8
35.200000 7
35.300000 7
35.400000 8
35.500000 8
35.600000 7
35.700000 9
35.800000 9
35.900000 8
36.000000 7
36.100000 8
36.200000 7
36.300000 7
36.400000 9
36.500000 8
36.600000 9
36.700000 7
36.800000 7
36.900000 9
37.000000 7
37.100000 8
37.200000 8
37.300000 7
37.400000 8
37.500000 9
37.600000 8
37.700000 9
37.800000 8
37.900000 8
38.000000 8
38.100000 8
38.200000 8
38.300000 8
38.400000 7
38.500000 8
38.600000 8
38.700000 8
38.800000 8
38.900000 9
39.000000 10
39.100000 8
39.200000 7
39.300000 7
39.400000 7
39.500000 9
39.600000 7
39.700000 8
39.800000 8
39.900000 7
40.000000 7
40.100000 8
40.200000 8
40.300000 8
40.400000 7
40.500000 8
40.600000 8
40.700000 9
40.800000 8
40.900000 6
41.000000 8
41.100000 7
41.200000 7
41.300000 9
41.400000 7
41.500000 7
41.600000 8
41.700000 7
41.800000 8
41.900000 7
42.000000 9
42.100000 9
42.200000 7
42.300000 9
42.400000 7
42.500000 9
42.600000 8
42.700000 8
42.800000 7
42.900000 8
43.000000 9
43.100000 7
43.200000 8
43.300000 7
43.400000 8
43.500000 7
43.600000 8
43.700000 8
43.800000 8
43.900000 7
44.000000 10
44.100000 8
44.200000 9
44.300000 9
44.400000 9
44.500000 8
44.600000 7
44.700000 7
44.800000 8
44.900000 8
45.000000 8
45.100000 8
45.200000 8
45.300000 9
45.400000 7
45.500000 10
45.600000 7
45.700000 7
45.800000 9
45.900000 5
46.000000 8
46.100000 7
46.200000 7
46.300000 7
46.400000 8
46.500000 7
46.600000 8
46.700000 8
46.800000 8
46.900000 7
47.000000 7
47.100000 8
47.200000 8
47.300000 7
47.400000 8
47.500000 7
47.600000 7
47.700000 8
47.800000 7
47.900000 8
48.000000 7
48.100000 10
48.200000 7
48.300000 7
48.400000 8
48.500000 7
48.600000 7
48.700000 8
48.800000 9
48.900000 8
49.000000 8
49.100000 9
49.200000 9
49.300000 8
49.400000 8
49.500000 10
49.600000 8
49.700000 7
49.800000 10
49.900000 8
50.000000 8
50.100000 9
50.200000 9
50.300000 9
50.400000 9
50.500000 9
50.600000 9
50.700000 8
50.800000 8
50.900000 9
51.000000 7
51.100000 8
51.200000 8
51.300000 9
51.400000 9
51.500000 7
51.600000 8
51.700000 5
51.800000 8
51.900000 7
52.000000 8
52.100000 7
52.200000 7
52.300000 7
52.400000 7
52.500000 7
52.600000 7
52.700000 8
52.800000 8
52.900000 7
53.000000 8
53.100000 7
53.200000 7
53.300000 8
53.400000 8
53.500000 8
53.600000 7
53.700000 8
53.800000 9
53.900000 7
54.000000 7
54.100000 8
54.200000 7
54.300000 8
54.400000 8
54.500000 7
54.600000 8
54.700000 8
54.800000 8
54.900000 8
55.000000 8
55.100000 8
55.200000 8
55.300000 7
55.400000 7
55.500000 7
55.600000 8
55.700000 7
55.800000 8
55.900000 8
56.000000 7
56.100000 7
56.200000 7
56.300000 8
56.400000 8
56.500000 7
56.600000 8
56.700000 8
56.800000 8
56.900000 8
57.000000 8
57.100000 8
57.200000 7
57.300000 6
57.400000 8
57.500000 8
57.600000 6
57.700000 7
57.800000 7
57.900000 8
58.000000 7
58.100000 7
58.200000 7
58.300000 9
58.400000 9
58.500000 8
58.600000 9
58.700000 7
58.800000 10
58.900000 9
59.000000 7
59.100000 8
59.200000 7
59.300000 7
59.400000 7
59.500000 7
59.600000 8
59.700000 8
59.800000 8
59.900000 8
60.000000 6
60.100000 8
60.200000 7
60.300000 8
60.400000 8
60.500000 8
60.600000 9
60.700000 8
60.800000 8
60.900000 8
61.000000 7
61.100000 7
61.200000 8
61.300000 7
61.400000 8
61.500000 7
61.600000 7
61.700000 8
61.800000 7
61.900000 7
62.000000 7
62.100000 7
62.200000 7
62.300000 8
62.400000 7
62.500000 7
62.600000 7
62.700000 7
62.800000 8
62.900000 7
63.000000 8
63.100000 7
63.200000 8
63.300000 6
63.400000 7
63.500000 7
63.600000 7
63.700000 7
63.800000 9
63.900000 8
64.000000 7
64.100000 7
64.200000 7
64.300000 7
64.400000 7
64.500000 9
64.600000 7
64.700000 6
64.800000 9
64.900000 8
65.000000 7
65.100000 7
65.200000 7
65.300000 8
65.400000 7
65.500000 7
65.600000 7
65.700000 9
65.800000 8
65.900000 6
66.000000 8
66.100000 7
66.200000 8
66.300000 8
66.400000 7
66.500000 7
66.600000 8
66.700000 8
66.800000 7
66.900000 8
67.000000 7
67.100000 7
67.200000 7
67.300000 7
67.400000 8
67.500000 7
67.600000 8
67.700000 7
67.800000 7
67.900000 7
68.000000 7
68.100000 8
68.200000 7
68.300000 7
68.400000 7
68.500000 7
68.600000 7
68.700000 7
68.800000 7
68.900000 7
69.000000 5
69.100000 7
69.200000 7
69.300000 7
69.400000 7
69.500000 8
69.600000 8
69.700000 8
69.800000 7
69.900000 8
70.000000 8
70.100000 8
70.200000 8
70.300000 6
70.400000 6
70.500000 7
70.600000 7
70.700000 7
70.800000 8
70.900000 8
71.000000 7
71.100000 7
71.200000 7
71.300000 7
71.400000 7
71.500000 8
71.600000 7
71.700000 7
71.800000 7
71.900000 7
72.000000 7
72.100000 7
72.200000 7
72.300000 7
72.400000 6
72.500000 7
72.600000 8
72.700000 7
72.800000 7
72.900000 8
73.000000 7
73.100000 7
73.200000 7
73.300000 7
73.400000 7
73.500000 7
73.600000 7
73.700000 8
73.800000 7
73.900000 7
74.000000 8
74.100000 7
74.200000 7
74.300000 7
74.400000 7
74.500000 8
74.600000 8
74.700000 7
74.800000 8
74.900000 8
75.000000 7
75.100000 7
75.200000 7
75.300000 7
75.400000 8
75.500000 8
75.600000 8
75.700000 7
75.800000 7
75.900000 7
76.000000 7
76.100000 7
76.200000 8
76.300000 7
76.400000 8
76.500000 8
76.600000 7
76.700000 7
76.800000 8
76.900000 7
77.000000 8
77.100000 7
77.200000 7
77.300000 8
77.400000 8
77.500000 7
77.600000 8
77.700000 8
77.800000 7
77.900000 7
78.000000 8
78.100000 7
78.200000 7
78.300000 7
78.400000 7
78.500000 7
78.600000 7
78.700000 8
78.800000 8
78.900000 7
79.000000 8
79.100000 7
79.200000 8
79.300000 7
79.400000 8
79.500000 7
79.600000 7
79.700000 9
79.800000 8
79.900000 8
80.000000 7
80.100000 7
80.200000 9
80.300000 8
80.400000 8
80.500000 9
80.600000 9
80.700000 9
80.800000 7
80.900000 8
81.000000 7
81.100000 8
81.200000 7
81.300000 6
81.400000 8
81.500000 7
81.600000 8
81.700000 8
81.800000 7
81.900000 7
82.000000 7
82.100000 9
82.200000 7
82.300000 7
82.400000 7
82.500000 7
82.600000 9
82.700000 7
82.800000 10
82.900000 8
83.000000 6
83.100000 8
83.200000 5
83.300000 6
83.400000 7
83.500000 7
83.600000 9
83.700000 9
83.800000 9
83.900000 7
84.000000 9
84.100000 7
84.200000 8
84.300000 7
84.400000 8
84.500000 7
84.600000 7
84.700000 8
84.800000 7
84.900000 7
85.000000 7
85.100000 7
85.200000 7
85.300000 8
85.400000 8
85.500000 9
85.600000 8
85.700000 9
85.800000 9
85.900000 8
86.000000 7
86.100000 8
86.200000 7
86.300000 7
86.400000 7
86.500000 7
86.600000 8
86.700000 8
86.800000 8
86.900000 8
87.000000 8
87.100000 7
87.200000 6
87.300000 9
87.400000 9
87.500000 9
87.600000 6
87.700000 8
87.800000 8
87.900000 7
88.000000 7
88.100000 8
88.200000 8
88.300000 7
88.400000 8
88.500000 7
88.600000 8
88.700000 9
88.800000 8
88.900000 7
89.000000 7
89.100000 7
89.200000 8
89.300000 7
89.400000 8
89.500000 8
89.600000 9
89.700000 8
89.800000 9
89.900000 5
90.000000 7
90.100000 9
90.200000 9
90.300000 9
90.400000 9
90.500000 7
90.600000 7
90.700000 8
90.800000 8
90.900000 8
91.000000 8
91.100000 8
91.200000 8
91.300000 9
91.400000 8
91.500000 8
91.600000 7
91.700000 8
91.800000 8
91.900000 8
92.000000 7
92.100000 8
92.200000 8
92.300000 8
92.400000 7
92.500000 9
92.600000 8
92.700000 6
92.800000 7
92.900000 9
93.000000 7
93.100000 7
93.200000 8
93.300000 7
93.400000 7
93.500000 8
93.600000 8
93.700000 6
93.800000 9
93.900000 7
94.000000 9
94.100000 9
94.200000 9
94.300000 9
94.400000 9
94.500000 9
94.600000 9
94.700000 9
94.800000 9
94.900000 9
95.000000 9
95.100000 9
95.200000 9
95.300000 9
95.400000 8
95.500000 7
95.600000 8
95.700000 8
95.800000 9
95.900000 7
96.000000 8
96.100000 7
96.200000 7
96.300000 8
96.400000 8
96.500000 8
96.600000 9
96.700000 7
96.800000 8
96.900000 7
97.000000 8
97.100000 8
97.200000 9
97.300000 7
97.400000 9
97.500000 7
97.600000 7
97.700000 7
97.800000 9
97.900000 7
98.000000 8
98.100000 7
98.200000 8
98.300000 8
98.400000 7
98.500000 8
98.600000 9
98.700000 7
98.800000 7
98.900000 8
99.000000 7
99.100000 7
99.200000 8
99.300000 7
99.400000 7
99.500000 8
99.600000 9
99.700000 9
99.800000 8
99.900000 8
100.000000 9
100.100000 9
100.200000 9
100.300000 9
100.400000 7
100.500000 9
100.600000 9
100.700000 9
100.800000 9
100.900000 7
101.000000 9
101.100000 8
101.200000 7
101.300000 8
101.400000 8
101.500000 8
101.600000 9
101.700000 8
101.800000 8
101.900000 7
102.000000 8
102.100000 8
102.200000 7
102.300000 8
102.400000 9
102.500000 8
102.600000 8
102.700000 7
102.800000 8
102.900000 9
103.000000 9
103.100000 9
103.200000 7
103.300000 8
103.400000 8
103.500000 9
103.600000 9
103.700000 7
103.800000 9
103.900000 8
104.000000 7
104.100000 8
104.200000 8
104.300000 9
104.400000 8
104.500000 8
104.600000 8
104.700000 7
104.800000 8
104.900000 8
105.000000 7
105.100000 7
105.200000 7
105.300000 9
105.400000 8
105.500000 8
105.600000 9
105.700000 7
105.800000 9
105.900000 9
106.000000 8
106.100000 10
106.200000 8
106.300000 8
106.400000 8
106.500000 8
106.600000 9
106.700000 9
106.800000 9
106.900000 7
107.000000 9
107.100000 7
107.200000 8
107.300000 8
107.400000 7
107.500000 9
107.600000 8
107.700000 7
107.800000 7
107.900000 9
108.000000 8
108.100000 9
108.200000 8
108.300000 8
108.400000 8
108.500000 7
108.600000 9
108.700000 8
108.800000 9
108.900000 9
109.000000 10
109.100000 8
109.200000 8
109.300000 9
109.400000 8
109.500000 7
109.600000 8
109.700000 7
109.800000 9
109.900000 7
110.000000 8
110.100000 8
110.200000 8
110.300000 8
110.400000 8
110.500000 7
110.600000 8
110.700000 9
110.800000 7
110.900000 8
111.000000 8
111.100000 9
111.200000 8
111.300000 8
111.400000 8
111.500000 8
111.600000 8
111.700000 8
111.800000 8
111.900000 7
112.000000 10
112.100000 8
112.200000 8
112.300000 8
112.400000 6
112.500000 9
112.600000 8
112.700000 8
112.800000 7
112.900000 8
113.000000 8
113.100000 7
113.200000 9
113.300000 9
113.400000 9
113.500000 8
113.600000 8
113.700000 8
113.800000 7
113.900000 8
114.000000 8
114.100000 8
114.200000 8
114.300000 8
114.400000 7
114.500000 8
114.600000 8
114.700000 9
114.800000 8
114.900000 8
115.000000 9
115.100000 8
115.200000 7
115.300000 8
115.400000 8
115.500000 7
115.600000 9
115.700000 9
115.800000 8
115.900000 7
116.000000 9
116.100000 8
116.200000 9
116.300000 7
116.400000 7
116.500000 7
116.600000 7
116.700000 9
116.800000 8
116.900000 8
117.000000 8
117.100000 8
117.200000 8
117.300000 8
117.400000 8
117.500000 8
117.600000 6
117.700000 9
117.800000 7
117.900000 8
118.000000 8
118.100000 7
118.200000 8
118.300000 7
118.400000 7
118.500000 8
118.600000 7
118.700000 8
118.800000 7
118.900000 6
119.000000 8
119.100000 7
119.200000 9
119.300000 7
119.400000 8
119.500000 8
119.600000 8
119.700000 8
119.800000 8
119.900000 8
120.000000 8
120.100000 9
120.200000 10
120.300000 7
120.400000 9
120.500000 9
120.600000 9
120.700000 7
120.800000 9
120.900000 9
121.000000 8
121.100000 7
121.200000 8
121.300000 8
121.400000 8
121.500000 8
121.600000 8
121.700000 8
121.800000 8
121.900000 8
122.000000 8
122.100000 8
122.200000 8
122.300000 8
122.400000 8
122.500000 7
122.600000 7
122.700000 7
122.800000 9
122.900000 7
123.000000 8
123.100000 7
123.200000 7
123.300000 6
123.400000 8
123.500000 6
123.600000 8
123.700000 8
123.800000 6
123.900000 6
124.000000 7
124.100000 7
124.200000 8
124.300000 7
124.400000 8
124.500000 7
124.600000 7
124.700000 7
124.800000 8
124.900000 8
125.000000 8
125.100000 7
125.200000 7
125.300000 7
125.400000 7
125.500000 7
125.600000 7
125.700000 8
125.800000 8
125.900000 8
126.000000 7
126.100000 6
126.200000 7
126.300000 6
126.400000 8
126.500000 8
126.600000 8
126.700000 8
126.800000 8
126.900000 10
127.000000 8
127.100000 8
127.200000 7
127.300000 7
127.400000 8
127.500000 8
127.600000 6
127.700000 8
127.800000 8
127.900000 9
128.000000 8
128.100000 8
128.200000 8
128.300000 8
128.400000 7
128.500000 7
128.600000 8
128.700000 7
128.800000 7
128.900000 7
129.000000 7
129.100000 8
129.200000 8
129.300000 6
129.400000 8
129.500000 7
129.600000 7
129.700000 8
129.800000 8
129.900000 5
130.000000 8
130.100000 8
130.200000 8
130.300000 7
130.400000 7
130.500000 7
130.600000 7
130.700000 6
130.800000 7
130.900000 7
131.000000 7
131.100000 8
131.200000 7
131.300000 8
131.400000 8
131.500000 8
131.600000 8
131.700000 8
131.800000 8
131.900000 8
132.000000 7
132.100000 8
132.200000 7
132.300000 9
132.400000 8
132.500000 8
132.600000 8
132.700000 8
132.800000 7
132.900000 8
133.000000 8
133.100000 7
133.200000 8
133.300000 7
133.400000 7
133.500000 8
133.600000 7
133.700000 7
133.800000 7
133.900000 8
134.000000 8
134.100000 8
134.200000 8
134.300000 8
134.400000 7
134.500000 8
134.600000 7
134.700000 7
134.800000 7
134.900000 7
135.000000 7
135.100000 8
135.200000 7
135.300000 7
135.400000 7
135.500000 7
135.600000 7
135.700000 8
135.800000 7
135.900000 8
136.000000 7
136.100000 7
136.200000 8
136.300000 6
136.400000 8
136.500000 7
136.600000 7
136.700000 8
136.800000 8
136.900000 6
137.000000 7
137.100000 8
137.200000 7
137.300000 7
137.400000 5
137.500000 7
137.600000 7
137.700000 8
137.800000 8
137.900000 8
138.000000 8
138.100000 7
138.200000 7
138.300000 7
138.400000 7
138.500000 7
138.600000 7
138.700000 7
138.800000 7
138.900000 7
139.000000 8
139.100000 7
139.200000 7
139.300000 7
139.400000 7
139.500000 8
139.600000 7
139.700000 7
139.800000 9
139.900000 8
140.000000 7
140.100000 7
140.200000 8
140.300000 10
140.400000 8
140.500000 9
140.600000 8
140.700000 8
140.800000 9
140.900000 8
141.000000 8
141.100000 8
141.200000 8
141.300000 7
141.400000 7
141.500000 7
141.600000 7
141.700000 9
141.800000 7
141.900000 7
142.000000 7
142.100000 7
142.200000 8
142.300000 6
142.400000 8
142.500000 8
142.600000 8
142.700000 7
142.800000 7
142.900000 7
143.000000 7
143.100000 8
143.200000 8
143.300000 9
143.400000 8
143.500000 8
143.600000 7
143.700000 7
143.800000 7
143.900000 8
144.000000 9
144.100000 8
144.200000 7
144.300000 7
144.400000 8
144.500000 8
144.600000 7
144.700000 7
144.800000 7
144.900000 10
145.000000 9
145.100000 9
145.200000 9
145.300000 7
145.400000 8
145.500000 8
145.600000 8
145.700000 7
145.800000 7
145.900000 9
146.000000 8
146.100000 6
146.200000 8
146.300000 8
146.400000 7
146.500000 7
146.600000 9
146.700000 6
146.800000 9
146.900000 5
147.000000 7
147.100000 7
147.200000 8
147.300000 7
147.400000 7
147.500000 9
147.600000 7
147.700000 9
147.800000 5
147.900000 7
148.000000 6
148.100000 7
148.200000 6
148.300000 7
148.400000 6
148.500000 7
148.600000 7
148.700000 7
148.800000 7
148.900000 8
149.000000 8
149.100000 7
149.200000 7
149.300000 7
149.400000 9
149.500000 8
149.600000 7
149.700000 8
149.800000 8
149.900000 8
150.000000 7
150.100000 7
150.200000 7
150.300000 8
150.400000 8
150.500000 5
150.600000 8
150.700000 8
150.800000 8
150.900000 7
151.000000 8
151.100000 7
151.200000 8
151.300000 8
151.400000 8
151.500000 8
151.600000 7
151.700000 8
151.800000 7
151.900000 7
152.000000 8
152.100000 6
152.200000 7
152.300000 7
152.400000 8
152.500000 7
152.600000 8
152.700000 8
152.800000 8
152.900000 8
153.000000 8
153.100000 7
153.200000 8
153.300000 7
153.400000 9
153.500000 8
153.600000 8
153.700000 8
153.800000 7
153.900000 7
154.000000 8
154.100000 9
154.200000 8
154.300000 8
154.400000 9
154.500000 8
154.600000 7
154.700000 7
154.800000 7
154.900000 10
155.000000 7
155.100000 7
155.200000 8
155.300000 7
155.400000 8
155.500000 9
155.600000 7
155.700000 8
155.800000 7
155.900000 7
156.000000 7
156.100000 7
156.200000 7
156.300000 7
156.400000 7
156.500000 8
156.600000 8
156.700000 7
156.800000 7
156.900000 8
157.000000 8
157.100000 8
157.200000 7
157.300000 8
157.400000 8
157.500000 8
157.600000 8
157.700000 8
157.800000 8
157.900000 7
158.000000 8
158.100000 7
158.200000 7
158.300000 7
158.400000 9
158.500000 8
158.600000 8
158.700000 8
158.800000 8
158.900000 7
159.000000 8
159.100000 8
159.200000 8
159.300000 8
159.400000 7
159.500000 8
159.600000 8
159.700000 7
159.800000 8
